20:27:45.991 -> 4.00,8.00
20:27:45.991 -> 8.00,3.00
20:27:45.991 -> 28.00,10.00
20:27:45.991 -> 0.00,1.00
20:27:45.991 -> 5.00,3.00
20:27:45.991 -> 7.00,3.00
20:27:45.991 -> 7.00,6.00
20:27:45.991 -> 0.00,10.00
20:27:45.991 -> 8.00,1.00
20:27:45.991 -> 7.00,1.00
20:27:45.991 -> 1.00,4.00
20:27:47.460 -> 27.00,0.00
20:27:47.566 -> 31.00,4.00
20:27:47.677 -> 0.00,2.00
20:27:47.787 -> 11.00,2.00
20:27:47.893 -> 8.00,2.00
20:27:47.961 -> 20.00,3.00
20:27:48.069 -> 43.00,1.00
20:27:48.173 -> 33.00,2.00
20:27:48.277 -> 2.00,7.00
20:27:48.387 -> 23.00,2.00
20:27:48.494 -> 65.00,0.00
20:27:48.600 -> 43.00,1.00
20:27:48.671 -> 90.00,6.00
20:27:48.773 -> 3.00,4.00
20:27:48.873 -> 40.00,11.00
20:27:48.975 -> 60.00,0.00
20:27:49.077 -> 44.00,17.00
20:27:49.183 -> 45.00,3.00
20:27:49.293 -> 19.00,3.00
20:27:49.399 -> 54.00,3.00
20:27:49.499 -> 4.00,5.00
20:27:49.605 -> 1.00,24.00
20:27:49.676 -> 47.00,7.00
20:27:49.781 -> 60.00,1.00
20:27:49.884 -> 15.00,2.00
20:27:49.990 -> 94.00,6.00
20:27:50.095 -> 51.00,10.00
20:27:50.205 -> 14.00,4.00
20:27:50.316 -> 28.00,5.00
20:27:50.391 -> 35.00,1.00
20:27:50.505 -> 39.00,10.00
20:27:50.616 -> 45.00,1.00
20:27:50.722 -> 29.00,3.00
20:27:50.790 -> 83.00,14.00
20:27:50.896 -> 15.00,0.00
20:27:50.998 -> 12.00,0.00
20:27:51.102 -> 31.00,10.00
20:27:51.215 -> 57.00,0.00
20:27:51.330 -> 35.00,0.00
20:27:51.406 -> 36.00,4.00
20:27:51.514 -> 44.00,5.00
20:27:51.628 -> 42.00,0.00
20:27:51.705 -> 35.00,1.00
20:27:51.819 -> 17.00,0.00
20:27:51.920 -> 17.00,3.00
20:27:52.030 -> 29.00,9.00
20:27:52.102 -> 62.00,3.00
20:27:52.210 -> 22.00,1.00
20:27:52.324 -> 45.00,0.00
20:27:52.437 -> 4.00,6.00
20:27:52.507 -> 8.00,4.00
20:27:52.607 -> 53.00,39.00
20:27:52.710 -> 114.00,7.00
20:27:52.812 -> 91.00,0.00
20:27:52.922 -> 8.00,7.00
20:27:53.024 -> 28.00,0.00
20:27:53.134 -> 10.00,10.00
20:27:53.244 -> 40.00,3.00
20:27:53.350 -> 6.00,3.00
20:27:53.419 -> 11.00,4.00
20:27:53.522 -> 28.00,24.00
20:27:53.623 -> 22.00,7.00
20:27:53.734 -> 8.00,5.00
20:27:53.840 -> 0.00,0.00
20:27:53.945 -> 71.00,4.00
20:27:54.052 -> 60.00,3.00
20:27:54.123 -> 38.00,4.00
20:27:54.228 -> 0.00,0.00
20:27:54.343 -> 0.00,8.00
20:27:54.453 -> 23.00,0.00
20:27:54.562 -> 66.00,9.00
20:27:54.639 -> 53.00,3.00
20:27:54.751 -> 26.00,2.00
20:27:54.862 -> 16.00,4.00
20:27:54.938 -> 62.00,6.00
20:27:55.039 -> 52.00,10.00
20:27:55.140 -> 7.00,0.00
20:27:55.245 -> 0.00,9.00
20:27:55.355 -> 30.00,0.00
20:27:55.465 -> 35.00,2.00
20:27:55.535 -> 38.00,2.00
20:27:55.641 -> 0.00,0.00
20:27:55.747 -> 37.00,7.00
20:27:55.859 -> 29.00,4.00
20:27:55.968 -> 20.00,2.00
20:27:56.069 -> 92.00,1.00
20:27:56.141 -> 58.00,2.00
20:27:56.249 -> 5.00,8.00
20:27:56.355 -> 36.00,2.00
20:27:56.465 -> 20.00,13.00
20:27:56.572 -> 24.00,19.00
20:27:56.673 -> 9.00,3.00
20:27:56.774 -> 26.00,22.00
20:27:56.885 -> 9.00,2.00
20:27:56.953 -> 42.00,6.00
20:27:57.058 -> 19.00,9.00
20:27:57.173 -> 23.00,0.00
20:27:57.280 -> 10.00,7.00
20:27:57.383 -> 40.00,0.00
20:27:57.489 -> 19.00,0.00
20:27:57.559 -> 39.00,11.00
20:27:57.662 -> 43.00,5.00
20:27:57.773 -> 15.00,1.00
20:27:57.873 -> 142.00,1.00
20:27:57.985 -> 41.00,0.00
20:27:58.092 -> 23.00,1.00
20:27:58.196 -> 60.00,3.00
20:27:58.264 -> 61.00,0.00
20:27:58.365 -> 59.00,16.00
20:27:58.469 -> 21.00,11.00
20:27:58.573 -> 22.00,1.00
20:27:58.676 -> 3.00,1.00
20:27:58.785 -> 43.00,2.00
20:27:58.896 -> 102.00,17.00
20:27:59.002 -> 0.00,2.00
20:27:59.073 -> 47.00,12.00
20:27:59.173 -> 34.00,10.00
20:27:59.284 -> 3.00,11.00
20:27:59.395 -> 32.00,7.00
20:27:59.507 -> 68.00,8.00
20:27:59.578 -> 33.00,5.00
20:27:59.688 -> 57.00,11.00
20:27:59.797 -> 39.00,0.00
20:27:59.907 -> 21.00,0.00
20:28:00.010 -> 80.00,10.00
20:28:00.081 -> 30.00,8.00
20:28:00.193 -> 64.00,17.00
20:28:00.302 -> 12.00,7.00
20:28:00.406 -> 30.00,24.00
20:28:00.515 -> 33.00,3.00
20:28:00.590 -> 0.00,1.00
20:28:00.697 -> 19.00,0.00
20:28:00.802 -> 77.00,1.00
20:28:00.906 -> 24.00,0.00
20:28:01.007 -> 46.00,2.00
20:28:01.109 -> 90.00,5.00
20:28:01.219 -> 7.00,6.00
20:28:01.323 -> 8.00,2.00
20:28:01.431 -> 13.00,9.00
20:28:01.504 -> 74.00,0.00
20:28:01.612 -> 65.00,7.00
20:28:01.722 -> 26.00,7.00
20:28:01.830 -> 5.00,13.00
20:28:01.901 -> 35.00,1.00
20:28:02.008 -> 28.00,1.00
20:28:02.114 -> 56.00,6.00
20:28:02.229 -> 6.00,1.00
20:28:02.340 -> 40.00,4.00
20:28:02.406 -> 58.00,14.00
20:28:02.520 -> 2.00,8.00
20:28:02.626 -> 72.00,0.00
20:28:02.732 -> 98.00,25.00
20:28:02.844 -> 36.00,2.00
20:28:02.912 -> 35.00,3.00
20:28:03.015 -> 45.00,3.00
20:28:03.116 -> 29.00,2.00
20:28:03.220 -> 31.00,3.00
20:28:03.328 -> 87.00,2.00
20:28:03.436 -> 40.00,22.00
20:28:03.539 -> 34.00,1.00
20:28:03.643 -> 44.00,18.00
20:28:03.716 -> 34.00,15.00
20:28:03.831 -> 7.00,0.00
20:28:03.945 -> 27.00,10.00
20:28:04.021 -> 30.00,3.00
20:28:04.125 -> 22.00,1.00
20:28:04.236 -> 84.00,18.00
20:28:04.342 -> 63.00,11.00
20:28:04.454 -> 33.00,4.00
20:28:04.523 -> 29.00,7.00
20:28:04.627 -> 36.00,32.00
20:28:04.735 -> 83.00,7.00
20:28:04.849 -> 9.00,8.00
20:28:04.956 -> 0.00,2.00
20:28:05.058 -> 10.00,2.00
20:28:05.167 -> 19.00,6.00
20:28:05.235 -> 50.00,3.00
20:28:05.342 -> 49.00,16.00
20:28:05.452 -> 39.00,14.00
20:28:05.566 -> 7.00,0.00
20:28:05.667 -> 37.00,3.00
20:28:05.739 -> 9.00,14.00
20:28:05.847 -> 75.00,1.00
20:28:05.956 -> 62.00,2.00
20:28:06.061 -> 88.00,6.00
20:28:06.168 -> 134.00,1.00
20:28:06.244 -> 54.00,4.00
20:28:06.358 -> 73.00,3.00
20:28:06.470 -> 18.00,1.00
20:28:06.572 -> 80.00,15.00
20:28:06.682 -> 12.00,0.00
20:28:06.748 -> 46.00,8.00
20:28:06.852 -> 138.00,6.00
20:28:06.955 -> 75.00,0.00
20:28:07.058 -> 0.00,9.00
20:28:07.162 -> 43.00,4.00
20:28:07.267 -> 46.00,8.00
20:28:07.371 -> 38.00,1.00
20:28:07.480 -> 121.00,0.00
20:28:07.582 -> 60.00,1.00
20:28:07.686 -> 9.00,3.00
20:28:07.756 -> 40.00,2.00
20:28:07.860 -> 81.00,7.00
20:28:07.967 -> 57.00,35.00
20:28:08.070 -> 43.00,11.00
20:28:08.178 -> 64.00,5.00
20:28:08.290 -> 28.00,5.00
20:28:08.367 -> 54.00,4.00
20:28:08.475 -> 27.00,4.00
20:28:08.586 -> 76.00,0.00
20:28:08.699 -> 105.00,1.00
20:28:08.770 -> 15.00,6.00
20:28:08.884 -> 71.00,55.00
20:28:08.993 -> 26.00,5.00
20:28:09.100 -> 32.00,2.00
20:28:09.172 -> 7.00,4.00
20:28:09.278 -> 40.00,2.00
20:28:09.392 -> 70.00,9.00
20:28:09.497 -> 93.00,6.00
20:28:09.602 -> 59.00,1.00
20:28:09.709 -> 1.00,5.00
20:28:09.778 -> 45.00,3.00
20:28:09.888 -> 23.00,5.00
20:28:09.998 -> 0.00,1.00
20:28:10.106 -> 59.00,6.00
20:28:10.212 -> 49.00,3.00
20:28:10.284 -> 39.00,10.00
20:28:10.397 -> 40.00,7.00
20:28:10.498 -> 88.00,13.00
20:28:10.602 -> 47.00,1.00
20:28:10.706 -> 77.00,12.00
20:28:10.817 -> 49.00,5.00
20:28:10.917 -> 20.00,6.00
20:28:10.988 -> 35.00,1.00
20:28:11.091 -> 23.00,1.00
20:28:11.201 -> 94.00,6.00
20:28:11.309 -> 6.00,9.00
20:28:11.415 -> 42.00,10.00
20:28:11.515 -> 67.00,14.00
20:28:11.625 -> 34.00,3.00
20:28:11.727 -> 27.00,1.00
20:28:11.795 -> 2.00,7.00
20:28:11.903 -> 45.00,0.00
20:28:12.008 -> 62.00,4.00
20:28:12.116 -> 84.00,19.00
20:28:12.230 -> 16.00,2.00
20:28:12.302 -> 1.00,3.00
20:28:12.416 -> 61.00,4.00
20:28:12.517 -> 8.00,11.00
20:28:12.623 -> 17.00,1.00
20:28:12.723 -> 26.00,3.00
20:28:12.827 -> 10.00,0.00
20:28:12.938 -> 0.00,11.00
20:28:13.009 -> 46.00,14.00
20:28:13.115 -> 3.00,5.00
20:28:13.228 -> 22.00,2.00
20:28:13.342 -> 70.00,7.00
20:28:13.416 -> 41.00,9.00
20:28:13.528 -> 61.00,0.00
20:28:13.638 -> 29.00,0.00
20:28:13.740 -> 37.00,7.00
20:28:13.846 -> 140.00,3.00
20:28:13.917 -> 42.00,23.00
20:28:14.018 -> 24.00,0.00
20:28:14.156 -> 7.00,2.00
20:28:14.225 -> 113.00,6.00
20:28:14.332 -> 23.00,5.00
20:28:14.439 -> 35.00,0.00
20:28:14.549 -> 108.00,7.00
20:28:14.659 -> 31.00,0.00
20:28:14.727 -> 0.00,5.00
20:28:14.833 -> 124.00,15.00
20:28:14.944 -> 19.00,36.00
20:28:15.050 -> 64.00,22.00
20:28:15.156 -> 45.00,5.00
20:28:15.267 -> 0.00,4.00
20:28:15.336 -> 76.00,2.00
20:28:15.439 -> 21.00,6.00
20:28:15.539 -> 74.00,7.00
20:28:15.640 -> 51.00,0.00
20:28:15.745 -> 43.00,1.00
20:28:15.852 -> 39.00,7.00
20:28:15.954 -> 18.00,4.00
20:28:16.065 -> 69.00,2.00
20:28:16.173 -> 2.00,5.00
20:28:16.246 -> 20.00,3.00
20:28:16.356 -> 24.00,5.00
20:28:16.466 -> 11.00,1.00
20:28:16.577 -> 0.00,0.00
20:28:16.645 -> 21.00,18.00
20:28:16.753 -> 40.00,5.00
20:28:16.863 -> 35.00,9.00
20:28:16.973 -> 90.00,0.00
20:28:17.081 -> 41.00,6.00
20:28:17.150 -> 59.00,1.00
20:28:17.261 -> 18.00,3.00
20:28:17.375 -> 34.00,5.00
20:28:17.452 -> 0.00,17.00
20:28:17.561 -> 26.00,4.00
20:28:17.671 -> 79.00,12.00
20:28:17.783 -> 91.00,12.00
20:28:17.857 -> 35.00,2.00
20:28:17.964 -> 3.00,14.00
20:28:18.069 -> 4.00,11.00
20:28:18.177 -> 33.00,12.00
20:28:18.278 -> 25.00,3.00
20:28:18.381 -> 74.00,15.00
20:28:18.490 -> 74.00,18.00
20:28:18.601 -> 88.00,0.00
20:28:18.669 -> 7.00,5.00
20:28:18.776 -> 50.00,7.00
20:28:18.880 -> 27.00,5.00
20:28:18.990 -> 52.00,7.00
20:28:19.095 -> 30.00,0.00
20:28:19.200 -> 78.00,0.00
20:28:19.269 -> 1.00,2.00
20:28:19.374 -> 42.00,12.00
20:28:19.477 -> 12.00,6.00
20:28:19.583 -> 33.00,9.00
20:28:19.692 -> 2.00,10.00
20:28:19.802 -> 52.00,2.00
20:28:19.912 -> 32.00,6.00
20:28:19.980 -> 0.00,0.00
20:28:20.084 -> 84.00,6.00
20:28:20.189 -> 60.00,15.00
20:28:20.297 -> 0.00,1.00
20:28:20.403 -> 0.00,2.00
20:28:20.509 -> 0.00,1.00
20:28:20.611 -> 21.00,1.00
20:28:20.714 -> 40.00,0.00
20:28:20.819 -> 126.00,5.00
20:28:20.894 -> 27.00,2.00
20:28:21.007 -> 1.00,4.00
20:28:21.116 -> 49.00,12.00
20:28:21.222 -> 18.00,18.00
20:28:21.290 -> 132.00,4.00
20:28:21.392 -> 0.00,0.00
20:28:21.503 -> 54.00,3.00
20:28:21.613 -> 64.00,3.00
20:28:21.716 -> 60.00,2.00
20:28:21.829 -> 46.00,2.00
20:28:21.897 -> 49.00,7.00
20:28:22.008 -> 77.00,6.00
20:28:22.109 -> 49.00,3.00
20:28:22.214 -> 0.00,17.00
20:28:22.327 -> 77.00,3.00
20:28:22.433 -> 73.00,9.00
20:28:22.503 -> 42.00,3.00
20:28:22.607 -> 0.00,4.00
20:28:22.716 -> 144.00,17.00
20:28:22.822 -> 48.00,1.00
20:28:22.923 -> 27.00,1.00
20:28:23.029 -> 66.00,4.00
20:28:23.135 -> 6.00,5.00
20:28:23.211 -> 49.00,10.00
20:28:23.325 -> 28.00,5.00
20:28:23.439 -> 15.00,21.00
20:28:23.548 -> 3.00,8.00
20:28:23.623 -> 62.00,4.00
20:28:23.735 -> 43.00,3.00
20:28:23.838 -> 14.00,6.00
20:28:23.949 -> 66.00,1.00
20:28:24.023 -> 48.00,1.00
20:28:24.124 -> 2.00,6.00
20:28:24.225 -> 118.00,2.00
20:28:24.335 -> 40.00,4.00
20:28:24.442 -> 62.00,54.00
20:28:24.552 -> 75.00,40.00
20:28:24.622 -> 91.00,2.00
20:28:24.760 -> 82.00,0.00
20:28:24.830 -> 43.00,4.00
20:28:24.936 -> 27.00,4.00
20:28:25.045 -> 17.00,1.00
20:28:25.152 -> 41.00,4.00
20:28:25.266 -> 37.00,8.00
20:28:25.342 -> 56.00,2.00
20:28:25.447 -> 38.00,4.00
20:28:25.552 -> 33.00,4.00
20:28:25.656 -> 45.00,0.00
20:28:25.756 -> 17.00,9.00
20:28:25.864 -> 75.00,4.00
20:28:25.970 -> 18.00,2.00
20:28:26.038 -> 38.00,7.00
20:28:26.144 -> 44.00,17.00
20:28:26.254 -> 56.00,0.00
20:28:26.366 -> 0.00,1.00
20:28:26.473 -> 36.00,0.00
20:28:26.546 -> 14.00,4.00
20:28:26.648 -> 26.00,10.00
20:28:26.756 -> 76.00,8.00
20:28:26.867 -> 0.00,18.00
20:28:26.981 -> 95.00,2.00
20:28:27.050 -> 55.00,8.00
20:28:27.156 -> 47.00,13.00
20:28:27.258 -> 102.00,2.00
20:28:27.368 -> 0.00,1.00
20:28:27.470 -> 60.00,3.00
20:28:27.576 -> 67.00,5.00
20:28:27.681 -> 36.00,12.00
20:28:27.754 -> 0.00,11.00
20:28:27.856 -> 14.00,6.00
20:28:27.963 -> 102.00,6.00
20:28:28.067 -> 72.00,0.00
20:28:28.168 -> 52.00,5.00
20:28:28.278 -> 8.00,1.00
20:28:28.392 -> 15.00,5.00
20:28:28.467 -> 64.00,1.00
20:28:28.580 -> 44.00,7.00
20:28:28.681 -> 86.00,4.00
20:28:28.793 -> 0.00,1.00
20:28:28.902 -> 0.00,5.00
20:28:28.971 -> 0.00,5.00
20:28:29.080 -> 98.00,1.00
20:28:29.186 -> 0.00,0.00
20:28:29.296 -> 1.00,3.00
20:28:29.368 -> 34.00,0.00
20:28:29.474 -> 29.00,12.00
20:28:29.586 -> 27.00,0.00
20:28:29.690 -> 27.00,2.00
20:28:29.801 -> 12.00,6.00
20:28:29.908 -> 48.00,5.00
20:28:29.975 -> 0.00,3.00
20:28:30.085 -> 61.00,0.00
20:28:30.190 -> 50.00,17.00
20:28:30.299 -> 34.00,1.00
20:28:30.406 -> 41.00,0.00
20:28:30.512 -> 24.00,2.00
20:28:30.618 -> 8.00,4.00
20:28:30.687 -> 68.00,10.00
20:28:30.801 -> 35.00,0.00
20:28:30.907 -> 0.00,1.00
20:28:31.018 -> 79.00,3.00
20:28:31.088 -> 51.00,8.00
20:28:31.191 -> 0.00,0.00
20:28:31.305 -> 53.00,15.00
20:28:31.411 -> 34.00,3.00
20:28:31.521 -> 29.00,0.00
20:28:31.589 -> 94.00,0.00
20:28:31.694 -> 0.00,0.00
20:28:31.795 -> 150.00,0.00
20:28:31.899 -> 98.00,7.00
20:28:32.006 -> 26.00,6.00
20:28:32.117 -> 53.00,1.00
20:28:32.227 -> 4.00,5.00
20:28:32.298 -> 7.00,0.00
20:28:32.403 -> 52.00,6.00
20:28:32.509 -> 4.00,3.00
20:28:32.614 -> 0.00,0.00
20:28:32.721 -> 65.00,2.00
20:28:32.831 -> 30.00,7.00
20:28:32.940 -> 40.00,2.00
20:28:33.007 -> 0.00,0.00
20:28:33.116 -> 13.00,7.00
20:28:33.221 -> 0.00,0.00
20:28:33.335 -> 0.00,8.00
20:28:33.441 -> 0.00,7.00
20:28:33.547 -> 6.00,1.00
20:28:33.614 -> 0.00,3.00
20:28:33.719 -> 0.00,0.00
20:28:33.824 -> 0.00,0.00
20:28:33.930 -> 5.00,1.00
20:28:34.031 -> 7.00,1.00
20:28:34.138 -> 22.00,2.00
20:28:34.251 -> 0.00,3.00
20:28:34.322 -> 5.00,0.00
20:28:34.422 -> 30.00,0.00
20:28:34.535 -> 30.00,2.00