20:24:05.312 -> 0.00,15.00
20:24:05.312 -> 69.00,4.00
20:24:05.312 -> 53.00,2.00
20:24:05.312 -> 93.00,6.00
20:24:05.312 -> 14.00,3.00
20:24:05.312 -> 26.00,0.00
20:24:05.312 -> 29.00,1.00
20:24:05.312 -> 0.00,2.00
20:24:05.312 -> 5.00,3.00
20:24:05.312 -> 99.00,0.00
20:24:06.778 -> 58.00,3.00
20:24:06.892 -> 21.00,3.00
20:24:06.965 -> 82.00,1.00
20:24:07.079 -> 27.00,5.00
20:24:07.193 -> 45.00,1.00
20:24:07.262 -> 10.00,7.00
20:24:07.369 -> 65.00,4.00
20:24:07.476 -> 37.00,13.00
20:24:07.585 -> 43.00,4.00
20:24:07.693 -> 48.00,0.00
20:24:07.803 -> 81.00,13.00
20:24:07.874 -> 0.00,8.00
20:24:07.977 -> 34.00,6.00
20:24:08.085 -> 2.00,9.00
20:24:08.195 -> 37.00,0.00
20:24:08.302 -> 56.00,1.00
20:24:08.409 -> 64.00,0.00
20:24:08.480 -> 53.00,4.00
20:24:08.586 -> 50.00,4.00
20:24:08.692 -> 111.00,2.00
20:24:08.802 -> 31.00,4.00
20:24:08.907 -> 29.00,1.00
20:24:09.014 -> 0.00,46.00
20:24:09.082 -> 33.00,11.00
20:24:09.190 -> 41.00,0.00
20:24:09.293 -> 0.00,5.00
20:24:09.398 -> 46.00,3.00
20:24:09.499 -> 55.00,5.00
20:24:09.605 -> 32.00,2.00
20:24:09.711 -> 31.00,3.00
20:24:09.818 -> 140.00,7.00
20:24:09.889 -> 60.00,38.00
20:24:09.996 -> 80.00,13.00
20:24:10.102 -> 125.00,4.00
20:24:10.210 -> 38.00,0.00
20:24:10.319 -> 45.00,8.00
20:24:10.425 -> 6.00,0.00
20:24:10.495 -> 69.00,10.00
20:24:10.606 -> 35.00,1.00
20:24:10.715 -> 41.00,0.00
20:24:10.827 -> 36.00,7.00
20:24:10.931 -> 81.00,4.00
20:24:11.003 -> 30.00,3.00
20:24:11.112 -> 90.00,0.00
20:24:11.227 -> 62.00,0.00
20:24:11.334 -> 21.00,2.00
20:24:11.438 -> 10.00,1.00
20:24:11.507 -> 2.00,4.00
20:24:11.613 -> 36.00,0.00
20:24:11.719 -> 29.00,0.00
20:24:11.832 -> 0.00,0.00
20:24:11.934 -> 13.00,6.00
20:24:12.040 -> 46.00,1.00
20:24:12.110 -> 21.00,3.00
20:24:12.215 -> 13.00,17.00
20:24:12.326 -> 66.00,1.00
20:24:12.432 -> 133.00,0.00
20:24:12.541 -> 57.00,1.00
20:24:12.651 -> 96.00,2.00
20:24:12.727 -> 14.00,6.00
20:24:12.840 -> 66.00,3.00
20:24:12.948 -> 32.00,6.00
20:24:13.056 -> 10.00,1.00
20:24:13.129 -> 78.00,0.00
20:24:13.240 -> 11.00,7.00
20:24:13.346 -> 41.00,2.00
20:24:13.454 -> 6.00,6.00
20:24:13.526 -> 0.00,4.00
20:24:13.633 -> 36.00,2.00
20:24:13.738 -> 47.00,1.00
20:24:13.851 -> 83.00,0.00
20:24:13.960 -> 49.00,3.00
20:24:14.031 -> 68.00,12.00
20:24:14.136 -> 0.00,15.00
20:24:14.248 -> 69.00,18.00
20:24:14.356 -> 59.00,15.00
20:24:14.464 -> 66.00,9.00
20:24:14.568 -> 0.00,0.00
20:24:14.639 -> 0.00,0.00
20:24:14.743 -> 69.00,0.00
20:24:14.843 -> 103.00,5.00
20:24:14.947 -> 30.00,6.00
20:24:15.058 -> 102.00,5.00
20:24:15.172 -> 38.00,9.00
20:24:15.242 -> 45.00,0.00
20:24:15.345 -> 52.00,17.00
20:24:15.449 -> 12.00,12.00
20:24:15.559 -> 14.00,5.00
20:24:15.664 -> 32.00,2.00
20:24:15.775 -> 118.00,5.00
20:24:15.850 -> 20.00,5.00
20:24:15.951 -> 46.00,1.00
20:24:16.064 -> 12.00,0.00
20:24:16.169 -> 133.00,2.00
20:24:16.278 -> 61.00,3.00
20:24:16.388 -> 71.00,3.00
20:24:16.463 -> 38.00,2.00
20:24:16.568 -> 33.00,4.00
20:24:16.682 -> 58.00,0.00
20:24:16.785 -> 64.00,4.00
20:24:16.889 -> 23.00,0.00
20:24:16.963 -> 32.00,4.00
20:24:17.068 -> 0.00,1.00
20:24:17.176 -> 30.00,0.00
20:24:17.281 -> 57.00,5.00
20:24:17.383 -> 103.00,1.00
20:24:17.490 -> 33.00,3.00
20:24:17.565 -> 37.00,4.00
20:24:17.674 -> 64.00,5.00
20:24:17.784 -> 59.00,0.00
20:24:17.893 -> 2.00,0.00
20:24:17.999 -> 28.00,1.00
20:24:18.069 -> 0.00,4.00
20:24:18.175 -> 22.00,4.00
20:24:18.280 -> 13.00,0.00
20:24:18.382 -> 63.00,1.00
20:24:18.492 -> 87.00,4.00
20:24:18.593 -> 102.00,1.00
20:24:18.701 -> 32.00,12.00
20:24:18.776 -> 0.00,1.00
20:24:18.876 -> 21.00,3.00
20:24:19.016 -> 26.00,2.00
20:24:19.087 -> 47.00,0.00
20:24:19.191 -> 23.00,5.00
20:24:19.300 -> 49.00,4.00
20:24:19.405 -> 60.00,1.00
20:24:19.519 -> 7.00,1.00
20:24:19.588 -> 0.00,3.00
20:24:19.697 -> 82.00,10.00
20:24:19.798 -> 23.00,3.00
20:24:19.899 -> 51.00,6.00
20:24:20.013 -> 16.00,1.00
20:24:20.124 -> 56.00,2.00
20:24:20.198 -> 4.00,1.00
20:24:20.308 -> 14.00,0.00
20:24:20.416 -> 8.00,0.00
20:24:20.526 -> 38.00,5.00
20:24:20.600 -> 5.00,3.00
20:24:20.702 -> 45.00,0.00
20:24:20.815 -> 60.00,0.00
20:24:20.923 -> 62.00,1.00
20:24:21.031 -> 50.00,7.00
20:24:21.099 -> 75.00,5.00
20:24:21.212 -> 21.00,7.00
20:24:21.317 -> 32.00,1.00
20:24:21.422 -> 0.00,3.00
20:24:21.523 -> 122.00,3.00
20:24:21.635 -> 4.00,3.00
20:24:21.710 -> 49.00,0.00
20:24:21.812 -> 13.00,6.00
20:24:21.926 -> 103.00,0.00
20:24:22.026 -> 19.00,20.00
20:24:22.135 -> 26.00,7.00
20:24:22.239 -> 68.00,5.00
20:24:22.312 -> 55.00,0.00
20:24:22.414 -> 112.00,1.00
20:24:22.525 -> 27.00,1.00
20:24:22.631 -> 74.00,6.00
20:24:22.741 -> 57.00,7.00
20:24:22.848 -> 38.00,1.00
20:24:22.918 -> 67.00,11.00
20:24:23.031 -> 64.00,3.00
20:24:23.140 -> 2.00,8.00
20:24:23.247 -> 49.00,19.00
20:24:23.353 -> 18.00,3.00
20:24:23.424 -> 36.00,9.00
20:24:23.531 -> 72.00,0.00
20:24:23.637 -> 13.00,1.00
20:24:23.741 -> 47.00,4.00
20:24:23.855 -> 117.00,4.00
20:24:23.965 -> 78.00,1.00
20:24:24.037 -> 1.00,5.00
20:24:24.150 -> 43.00,3.00
20:24:24.259 -> 81.00,3.00
20:24:24.359 -> 24.00,3.00
20:24:24.433 -> 51.00,2.00
20:24:24.544 -> 110.00,7.00
20:24:24.654 -> 0.00,6.00
20:24:24.766 -> 71.00,2.00
20:24:24.869 -> 26.00,0.00
20:24:24.937 -> 105.00,28.00
20:24:25.047 -> 28.00,11.00
20:24:25.154 -> 11.00,0.00
20:24:25.260 -> 87.00,2.00
20:24:25.360 -> 8.00,2.00
20:24:25.463 -> 58.00,9.00
20:24:25.574 -> 64.00,23.00
20:24:25.648 -> 76.00,13.00
20:24:25.758 -> 0.00,11.00
20:24:25.867 -> 80.00,25.00
20:24:25.972 -> 96.00,15.00
20:24:26.082 -> 76.00,4.00
20:24:26.154 -> 92.00,2.00
20:24:26.268 -> 95.00,2.00
20:24:26.381 -> 33.00,6.00
20:24:26.482 -> 113.00,11.00
20:24:26.585 -> 58.00,2.00
20:24:26.656 -> 49.00,5.00
20:24:26.762 -> 68.00,9.00
20:24:26.871 -> 25.00,23.00
20:24:26.979 -> 69.00,19.00
20:24:27.084 -> 59.00,5.00
20:24:27.195 -> 44.00,5.00
20:24:27.263 -> 77.00,0.00
20:24:27.370 -> 16.00,7.00
20:24:27.471 -> 51.00,2.00
20:24:27.576 -> 70.00,11.00
20:24:27.678 -> 23.00,0.00
20:24:27.785 -> 74.00,1.00
20:24:27.894 -> 30.00,1.00
20:24:28.002 -> 14.00,14.00
20:24:28.070 -> 96.00,2.00
20:24:28.173 -> 17.00,0.00
20:24:28.280 -> 90.00,1.00
20:24:28.391 -> 54.00,1.00
20:24:28.495 -> 57.00,8.00
20:24:28.598 -> 10.00,0.00
20:24:28.709 -> 49.00,4.00
20:24:28.779 -> 46.00,7.00
20:24:28.882 -> 51.00,5.00
20:24:28.983 -> 0.00,0.00
20:24:29.093 -> 144.00,12.00
20:24:29.205 -> 53.00,21.00
20:24:29.315 -> 24.00,2.00
20:24:29.383 -> 57.00,1.00
20:24:29.488 -> 71.00,4.00
20:24:29.594 -> 80.00,2.00
20:24:29.700 -> 65.00,11.00
20:24:29.807 -> 126.00,14.00
20:24:29.915 -> 30.00,3.00
20:24:30.021 -> 15.00,1.00
20:24:30.094 -> 12.00,9.00
20:24:30.199 -> 0.00,24.00
20:24:30.305 -> 14.00,16.00
20:24:30.410 -> 59.00,7.00
20:24:30.517 -> 22.00,1.00
20:24:30.619 -> 75.00,4.00
20:24:30.730 -> 19.00,2.00
20:24:30.797 -> 68.00,2.00
20:24:30.905 -> 94.00,3.00
20:24:31.007 -> 78.00,24.00
20:24:31.119 -> 65.00,8.00
20:24:31.229 -> 44.00,1.00
20:24:31.334 -> 52.00,3.00
20:24:31.434 -> 41.00,18.00
20:24:31.510 -> 18.00,5.00
20:24:31.624 -> 2.00,0.00
20:24:31.735 -> 33.00,2.00
20:24:31.806 -> 7.00,6.00
20:24:31.912 -> 45.00,4.00
20:24:32.015 -> 66.00,0.00
20:24:32.125 -> 59.00,0.00
20:24:32.234 -> 36.00,3.00
20:24:32.345 -> 7.00,5.00
20:24:32.412 -> 32.00,5.00
20:24:32.513 -> 19.00,0.00
20:24:32.620 -> 22.00,1.00
20:24:32.733 -> 10.00,2.00
20:24:32.837 -> 129.00,1.00
20:24:32.941 -> 126.00,7.00
20:24:33.051 -> 91.00,6.00
20:24:33.117 -> 85.00,5.00
20:24:33.227 -> 0.00,48.00
20:24:33.338 -> 63.00,24.00
20:24:33.446 -> 108.00,9.00
20:24:33.556 -> 55.00,8.00
20:24:33.625 -> 5.00,5.00
20:24:33.734 -> 40.00,3.00
20:24:33.839 -> 5.00,14.00
20:24:33.949 -> 30.00,6.00
20:24:34.055 -> 157.00,0.00
20:24:34.162 -> 97.00,4.00
20:24:34.231 -> 63.00,10.00
20:24:34.340 -> 49.00,1.00
20:24:34.443 -> 10.00,6.00
20:24:34.550 -> 54.00,6.00
20:24:34.655 -> 50.00,26.00
20:24:34.762 -> 11.00,5.00
20:24:34.869 -> 142.00,5.00
20:24:34.943 -> 146.00,6.00
20:24:35.050 -> 115.00,22.00
20:24:35.151 -> 52.00,31.00
20:24:35.258 -> 5.00,22.00
20:24:35.372 -> 56.00,1.00
20:24:35.440 -> 90.00,21.00
20:24:35.550 -> 64.00,3.00
20:24:35.656 -> 63.00,5.00
20:24:35.759 -> 29.00,2.00
20:24:35.867 -> 2.00,22.00
20:24:35.971 -> 119.00,16.00
20:24:36.045 -> 61.00,24.00
20:24:36.151 -> 70.00,5.00
20:24:36.265 -> 17.00,8.00
20:24:36.366 -> 14.00,4.00
20:24:36.475 -> 73.00,2.00
20:24:36.582 -> 52.00,3.00
20:24:36.688 -> 64.00,7.00
20:24:36.755 -> 55.00,1.00
20:24:36.860 -> 81.00,1.00
20:24:36.970 -> 101.00,8.00
20:24:37.076 -> 44.00,1.00
20:24:37.183 -> 102.00,21.00
20:24:37.288 -> 24.00,6.00
20:24:37.393 -> 57.00,0.00
20:24:37.460 -> 22.00,1.00
20:24:37.566 -> 51.00,2.00
20:24:37.671 -> 54.00,0.00
20:24:37.780 -> 0.00,0.00
20:24:37.888 -> 7.00,22.00
20:24:37.990 -> 85.00,13.00
20:24:38.092 -> 20.00,16.00
20:24:38.205 -> 83.00,4.00
20:24:38.273 -> 77.00,5.00
20:24:38.376 -> 67.00,0.00
20:24:38.478 -> 45.00,21.00
20:24:38.587 -> 5.00,3.00
20:24:38.698 -> 1.00,8.00
20:24:38.809 -> 1.00,4.00
20:24:38.875 -> 121.00,9.00
20:24:38.982 -> 89.00,7.00
20:24:39.089 -> 64.00,30.00
20:24:39.202 -> 39.00,7.00
20:24:39.278 -> 27.00,0.00
20:24:39.384 -> 54.00,0.00
20:24:39.494 -> 0.00,7.00
20:24:39.605 -> 1.00,0.00
20:24:39.715 -> 38.00,2.00
20:24:39.786 -> 55.00,18.00
20:24:39.895 -> 20.00,6.00
20:24:40.000 -> 35.00,1.00
20:24:40.114 -> 8.00,0.00
20:24:40.216 -> 0.00,6.00
20:24:40.324 -> 7.00,6.00
20:24:40.395 -> 16.00,0.00
20:24:40.501 -> 123.00,3.00
20:24:40.611 -> 12.00,9.00
20:24:40.718 -> 93.00,2.00
20:24:40.830 -> 30.00,0.00
20:24:40.899 -> 80.00,19.00
20:24:41.005 -> 120.00,4.00
20:24:41.109 -> 111.00,15.00
20:24:41.219 -> 37.00,6.00
20:24:41.329 -> 124.00,6.00
20:24:41.437 -> 60.00,6.00
20:24:41.503 -> 7.00,1.00
20:24:41.612 -> 46.00,12.00
20:24:41.714 -> 79.00,1.00
20:24:41.823 -> 19.00,15.00
20:24:41.931 -> 86.00,2.00
20:24:42.041 -> 31.00,10.00
20:24:42.117 -> 31.00,7.00
20:24:42.226 -> 17.00,0.00
20:24:42.341 -> 26.00,6.00
20:24:42.448 -> 44.00,26.00
20:24:42.517 -> 52.00,14.00
20:24:42.625 -> 34.00,1.00
20:24:42.735 -> 12.00,0.00
20:24:42.848 -> 63.00,7.00
20:24:42.924 -> 65.00,8.00
20:24:43.032 -> 14.00,0.00
20:24:43.145 -> 96.00,0.00
20:24:43.251 -> 61.00,2.00
20:24:43.322 -> 42.00,3.00
20:24:43.426 -> 32.00,3.00
20:24:43.528 -> 146.00,26.00
20:24:43.631 -> 43.00,7.00
20:24:43.733 -> 53.00,1.00
20:24:43.846 -> 80.00,5.00
20:24:43.958 -> 13.00,2.00
20:24:44.028 -> 28.00,1.00
20:24:44.130 -> 2.00,8.00
20:24:44.233 -> 37.00,10.00
20:24:44.338 -> 54.00,4.00
20:24:44.442 -> 55.00,40.00
20:24:44.553 -> 88.00,27.00
20:24:44.663 -> 47.00,5.00
20:24:44.766 -> 34.00,2.00
20:24:44.835 -> 32.00,7.00
20:24:44.942 -> 107.00,0.00
20:24:45.053 -> 36.00,3.00
20:24:45.168 -> 70.00,3.00
20:24:45.243 -> 63.00,7.00
20:24:45.356 -> 55.00,12.00
20:24:45.466 -> 7.00,7.00
20:24:45.543 -> 46.00,14.00
20:24:45.657 -> 22.00,8.00
20:24:45.771 -> 132.00,2.00
20:24:45.844 -> 71.00,0.00
20:24:45.949 -> 25.00,10.00
20:24:46.053 -> 33.00,1.00
20:24:46.163 -> 5.00,7.00
20:24:46.270 -> 34.00,10.00
20:24:46.381 -> 0.00,0.00
20:24:46.449 -> 84.00,3.00
20:24:46.555 -> 25.00,17.00
20:24:46.662 -> 38.00,17.00
20:24:46.772 -> 3.00,0.00
20:24:46.877 -> 21.00,5.00
20:24:46.984 -> 58.00,1.00
20:24:47.055 -> 13.00,2.00
20:24:47.163 -> 69.00,0.00
20:24:47.264 -> 75.00,3.00
20:24:47.366 -> 20.00,7.00
20:24:47.475 -> 67.00,8.00
20:24:47.585 -> 62.00,8.00
20:24:47.689 -> 46.00,0.00
20:24:47.760 -> 3.00,10.00
20:24:47.867 -> 96.00,0.00
20:24:47.972 -> 18.00,4.00
20:24:48.081 -> 21.00,0.00
20:24:48.190 -> 0.00,0.00
20:24:48.294 -> 25.00,3.00
20:24:48.395 -> 87.00,10.00
20:24:48.500 -> 96.00,7.00
20:24:48.606 -> 87.00,6.00
20:24:48.677 -> 123.00,15.00
20:24:48.783 -> 71.00,0.00
20:24:48.891 -> 76.00,1.00
20:24:48.993 -> 0.00,1.00
20:24:49.103 -> 79.00,0.00
20:24:49.179 -> 81.00,2.00
20:24:49.283 -> 86.00,0.00
20:24:49.391 -> 3.00,4.00
20:24:49.493 -> 61.00,5.00
20:24:49.595 -> 95.00,3.00
20:24:49.702 -> 72.00,2.00
20:24:49.804 -> 0.00,4.00
20:24:49.907 -> 72.00,2.00
20:24:50.018 -> 46.00,2.00
20:24:50.087 -> 12.00,1.00
20:24:50.192 -> 113.00,3.00
20:24:50.299 -> 40.00,27.00
20:24:50.401 -> 78.00,39.00
20:24:50.508 -> 32.00,2.00
20:24:50.609 -> 77.00,4.00
20:24:50.720 -> 48.00,2.00
20:24:50.792 -> 56.00,2.00
20:24:50.897 -> 73.00,3.00
20:24:51.003 -> 57.00,3.00
20:24:51.118 -> 75.00,3.00
20:24:51.225 -> 52.00,2.00
20:24:51.325 -> 53.00,0.00
20:24:51.396 -> 0.00,4.00
20:24:51.507 -> 2.00,0.00
20:24:51.610 -> 57.00,3.00
20:24:51.721 -> 47.00,5.00
20:24:51.826 -> 100.00,0.00
20:24:51.932 -> 40.00,1.00
20:24:52.040 -> 11.00,0.00
20:24:52.110 -> 4.00,3.00
20:24:52.213 -> 133.00,6.00
20:24:52.317 -> 23.00,4.00
20:24:52.418 -> 43.00,0.00
20:24:52.519 -> 0.00,3.00
20:24:52.625 -> 40.00,6.00
20:24:52.728 -> 73.00,5.00
20:24:52.831 -> 5.00,6.00
20:24:52.933 -> 15.00,8.00
20:24:53.035 -> 34.00,3.00
20:24:53.141 -> 20.00,6.00
20:24:53.215 -> 41.00,0.00
20:24:53.322 -> 76.00,8.00
20:24:53.425 -> 29.00,0.00
20:24:53.531 -> 14.00,2.00
20:24:53.645 -> 4.00,7.00
20:24:53.755 -> 7.00,6.00
20:24:53.832 -> 21.00,7.00
20:24:53.946 -> 6.00,6.00
20:24:54.057 -> 38.00,10.00
20:24:54.125 -> 17.00,0.00
20:24:54.231 -> 51.00,1.00
20:24:54.344 -> 58.00,2.00
20:24:54.447 -> 83.00,8.00
20:24:54.551 -> 33.00,13.00
20:24:54.661 -> 39.00,8.00
20:24:54.769 -> 50.00,3.00
20:24:54.841 -> 40.00,0.00
20:24:54.952 -> 16.00,6.00
20:24:55.059 -> 3.00,0.00
20:24:55.165 -> 72.00,2.00
20:24:55.268 -> 83.00,3.00
20:24:55.340 -> 34.00,5.00
20:24:55.450 -> 38.00,4.00
20:24:55.555 -> 37.00,3.00
20:24:55.659 -> 37.00,1.00
20:24:55.766 -> 38.00,1.00
20:24:55.871 -> 45.00,4.00
20:24:55.977 -> 150.00,1.00
20:24:56.048 -> 96.00,5.00
20:24:56.156 -> 49.00,9.00
20:24:56.260 -> 9.00,3.00
20:24:56.361 -> 53.00,15.00
20:24:56.472 -> 22.00,14.00
20:24:56.576 -> 84.00,10.00
20:24:56.680 -> 84.00,0.00
20:24:56.788 -> 36.00,3.00
20:24:56.859 -> 53.00,0.00
20:24:56.959 -> 0.00,6.00
20:24:57.059 -> 4.00,3.00
20:24:57.159 -> 21.00,5.00
20:24:57.266 -> 92.00,7.00
20:24:57.368 -> 75.00,1.00
20:24:57.470 -> 45.00,17.00
20:24:57.576 -> 99.00,10.00
20:24:57.682 -> 6.00,9.00
20:24:57.788 -> 74.00,5.00
20:24:57.892 -> 23.00,4.00
20:24:57.967 -> 25.00,3.00
20:24:58.081 -> 12.00,3.00
20:24:58.193 -> 13.00,4.00
20:24:58.302 -> 9.00,5.00
20:24:58.374 -> 32.00,13.00
20:24:58.481 -> 108.00,16.00
20:24:58.590 -> 74.00,5.00
20:24:58.702 -> 119.00,2.00
20:24:58.769 -> 91.00,6.00
20:24:58.881 -> 105.00,3.00
20:24:58.990 -> 59.00,7.00
20:24:59.102 -> 38.00,0.00
20:24:59.178 -> 40.00,13.00
20:24:59.288 -> 16.00,11.00
20:24:59.399 -> 18.00,2.00
20:24:59.513 -> 90.00,26.00
20:24:59.580 -> 60.00,11.00
20:24:59.681 -> 60.00,16.00
20:24:59.789 -> 93.00,6.00
20:24:59.891 -> 28.00,5.00
20:24:59.995 -> 58.00,10.00
20:25:00.105 -> 38.00,11.00
20:25:00.213 -> 33.00,0.00
20:25:00.315 -> 28.00,0.00
20:25:00.418 -> 63.00,1.00
20:25:00.489 -> 121.00,3.00
20:25:00.596 -> 28.00,1.00
20:25:00.702 -> 90.00,5.00
20:25:00.812 -> 0.00,9.00
20:25:00.916 -> 77.00,7.00
20:25:01.018 -> 83.00,1.00
20:25:01.125 -> 99.00,8.00
20:25:01.229 -> 7.00,5.00
20:25:01.296 -> 138.00,0.00
20:25:01.403 -> 0.00,0.00
20:25:01.510 -> 43.00,12.00
20:25:01.616 -> 18.00,10.00
20:25:01.726 -> 42.00,61.00
20:25:01.800 -> 71.00,1.00
20:25:01.914 -> 11.00,5.00
20:25:02.024 -> 26.00,1.00
20:25:02.134 -> 36.00,0.00
20:25:02.240 -> 57.00,4.00
20:25:02.308 -> 80.00,2.00
20:25:02.413 -> 34.00,1.00
20:25:02.527 -> 15.00,5.00
20:25:02.633 -> 96.00,9.00
20:25:02.739 -> 2.00,56.00
20:25:02.848 -> 44.00,1.00
20:25:02.916 -> 83.00,0.00
20:25:03.022 -> 8.00,15.00
20:25:03.131 -> 41.00,1.00
20:25:03.242 -> 69.00,1.00
20:25:03.346 -> 38.00,1.00
20:25:03.453 -> 65.00,8.00
20:25:03.521 -> 26.00,33.00
20:25:03.626 -> 63.00,0.00
20:25:03.730 -> 95.00,2.00
20:25:03.844 -> 10.00,1.00
20:25:03.952 -> 55.00,1.00
20:25:04.024 -> 43.00,2.00
20:25:04.128 -> 52.00,4.00
20:25:04.230 -> 38.00,1.00
20:25:04.341 -> 78.00,1.00
20:25:04.447 -> 30.00,0.00
20:25:04.554 -> 74.00,16.00
20:25:04.664 -> 54.00,13.00
20:25:04.732 -> 55.00,27.00
20:25:04.839 -> 77.00,8.00
20:25:04.942 -> 8.00,6.00
20:25:05.043 -> 4.00,3.00
20:25:05.154 -> 4.00,3.00
20:25:05.259 -> 60.00,3.00
20:25:05.361 -> 13.00,3.00
20:25:05.467 -> 81.00,3.00
20:25:05.536 -> 32.00,1.00
20:25:05.642 -> 92.00,0.00
20:25:05.744 -> 43.00,0.00
20:25:05.859 -> 28.00,3.00
20:25:05.973 -> 75.00,2.00
20:25:06.076 -> 28.00,3.00
20:25:06.146 -> 72.00,3.00
20:25:06.252 -> 3.00,0.00
20:25:06.353 -> 118.00,4.00
20:25:06.455 -> 115.00,4.00
20:25:06.568 -> 13.00,1.00
20:25:06.669 -> 63.00,1.00
20:25:06.775 -> 28.00,2.00
20:25:06.875 -> 39.00,0.00
20:25:06.985 -> 32.00,2.00
20:25:07.055 -> 50.00,4.00
20:25:07.159 -> 17.00,1.00
20:25:07.264 -> 94.00,3.00
20:25:07.369 -> 72.00,5.00
20:25:07.481 -> 3.00,3.00
20:25:07.584 -> 118.00,3.00
20:25:07.660 -> 24.00,2.00
20:25:07.770 -> 0.00,4.00
20:25:07.884 -> 19.00,2.00
20:25:07.998 -> 7.00,1.00
20:25:08.074 -> 9.00,2.00
20:25:08.188 -> 7.00,5.00
20:25:08.302 -> 86.00,4.00
20:25:08.378 -> 52.00,3.00
20:25:08.483 -> 74.00,8.00
20:25:08.592 -> 53.00,4.00
20:25:08.694 -> 14.00,0.00
20:25:08.803 -> 24.00,4.00
20:25:08.871 -> 59.00,3.00
20:25:08.980 -> 5.00,4.00
20:25:09.093 -> 13.00,2.00
20:25:09.199 -> 10.00,3.00
20:25:09.308 -> 0.00,1.00
20:25:09.378 -> 40.00,0.00
20:25:09.488 -> 24.00,5.00
20:25:09.592 -> 7.00,1.00
20:25:09.702 -> 50.00,1.00
20:25:09.806 -> 6.00,2.00
20:25:09.913 -> 21.00,0.00
20:25:09.985 -> 0.00,0.00
20:25:10.092 -> 0.00,7.00
20:25:10.192 -> 0.00,2.00
20:25:10.295 -> 0.00,4.00
20:25:10.406 -> 14.00,0.00
20:25:10.517 -> 11.00,1.00
20:25:10.587 -> 20.00,2.00
20:25:10.697 -> 3.00,4.00
20:25:10.809 -> 4.00,1.00
20:25:10.919 -> 5.00,4.00
20:25:11.025 -> 3.00,2.00
20:25:11.097 -> 3.00,4.00
20:25:11.200 -> 2.00,2.00
20:25:11.309 -> 1.00,3.00
20:25:11.414 -> 23.00,6.00
20:25:11.522 -> 2.00,0.00
20:25:11.626 -> 4.00,3.00
20:25:11.734 -> 0.00,1.00
20:25:11.805 -> 0.00,0.00
