20:32:12.291 -> 61.00,4.00
20:32:12.396 -> 0.00,4.00
20:32:12.502 -> 57.00,5.00
20:32:12.569 -> 18.00,4.00
20:32:12.672 -> 0.00,0.00
20:32:12.779 -> 57.00,2.00
20:32:12.886 -> 51.00,1.00
20:32:12.996 -> 32.00,1.00
20:32:13.106 -> 0.00,7.00
20:32:13.183 -> 5.00,3.00
20:32:13.294 -> 47.00,2.00
20:32:13.401 -> 8.00,0.00
20:32:13.512 -> 21.00,11.00
20:32:13.584 -> 36.00,39.00
20:32:13.686 -> 79.00,12.00
20:32:13.787 -> 42.00,16.00
20:32:13.897 -> 0.00,10.00
20:32:14.011 -> 20.00,2.00
20:32:14.086 -> 10.00,0.00
20:32:14.191 -> 24.00,5.00
20:32:14.302 -> 74.00,2.00
20:32:14.408 -> 9.00,8.00
20:32:14.518 -> 110.00,17.00
20:32:14.586 -> 0.00,29.00
20:32:14.698 -> 7.00,0.00
20:32:14.808 -> 44.00,1.00
20:32:14.916 -> 12.00,2.00
20:32:14.991 -> 33.00,6.00
20:32:15.097 -> 20.00,0.00
20:32:15.206 -> 65.00,1.00
20:32:15.315 -> 19.00,11.00
20:32:15.429 -> 124.00,9.00
20:32:15.502 -> 63.00,28.00
20:32:15.607 -> 42.00,1.00
20:32:15.709 -> 42.00,10.00
20:32:15.816 -> 29.00,5.00
20:32:15.930 -> 14.00,5.00
20:32:16.006 -> 59.00,1.00
20:32:16.117 -> 0.00,2.00
20:32:16.229 -> 52.00,15.00
20:32:16.337 -> 68.00,21.00
20:32:16.408 -> 22.00,14.00
20:32:16.519 -> 46.00,0.00
20:32:16.628 -> 35.00,2.00
20:32:16.739 -> 81.00,0.00
20:32:16.843 -> 97.00,2.00
20:32:16.950 -> 44.00,4.00
20:32:17.022 -> 130.00,13.00
20:32:17.137 -> 42.00,12.00
20:32:17.243 -> 24.00,6.00
20:32:17.350 -> 50.00,3.00
20:32:17.420 -> 57.00,0.00
20:32:17.529 -> 11.00,3.00
20:32:17.643 -> 78.00,1.00
20:32:17.757 -> 75.00,6.00
20:32:17.828 -> 32.00,6.00
20:32:17.933 -> 61.00,1.00
20:32:18.040 -> 26.00,1.00
20:32:18.151 -> 8.00,3.00
20:32:18.261 -> 26.00,5.00
20:32:18.332 -> 18.00,1.00
20:32:18.436 -> 25.00,12.00
20:32:18.539 -> 50.00,1.00
20:32:18.649 -> 48.00,4.00
20:32:18.752 -> 104.00,2.00
20:32:18.866 -> 40.00,0.00
20:32:18.939 -> 33.00,0.00
20:32:19.052 -> 30.00,8.00
20:32:19.162 -> 82.00,13.00
20:32:19.267 -> 37.00,4.00
20:32:19.335 -> 0.00,1.00
20:32:19.436 -> 97.00,0.00
20:32:19.569 -> 0.00,5.00
20:32:19.641 -> 8.00,4.00
20:32:19.743 -> 50.00,14.00
20:32:19.853 -> 12.00,0.00
20:32:19.967 -> 51.00,16.00
20:32:20.043 -> 44.00,1.00
20:32:20.157 -> 96.00,1.00
20:32:20.267 -> 12.00,4.00
20:32:20.376 -> 5.00,0.00
20:32:20.453 -> 67.00,5.00
20:32:20.567 -> 86.00,5.00
20:32:20.681 -> 40.00,8.00
20:32:20.754 -> 45.00,1.00
20:32:20.856 -> 64.00,0.00
20:32:20.970 -> 5.00,14.00
20:32:21.076 -> 0.00,6.00
20:32:21.182 -> 15.00,10.00
20:32:21.291 -> 53.00,8.00
20:32:21.358 -> 17.00,3.00
20:32:21.465 -> 30.00,2.00
20:32:21.567 -> 22.00,4.00
20:32:21.674 -> 15.00,0.00
20:32:21.782 -> 79.00,9.00
20:32:21.886 -> 19.00,6.00
20:32:21.986 -> 0.00,8.00
20:32:22.092 -> 47.00,1.00
20:32:22.197 -> 62.00,0.00
20:32:22.265 -> 0.00,2.00
20:32:22.370 -> 10.00,10.00
20:32:22.474 -> 5.00,4.00
20:32:22.576 -> 68.00,5.00
20:32:22.691 -> 0.00,14.00
20:32:22.801 -> 67.00,1.00
20:32:22.870 -> 2.00,3.00
20:32:22.978 -> 0.00,0.00
20:32:23.091 -> 4.00,3.00
20:32:23.201 -> 48.00,1.00
20:32:23.311 -> 106.00,0.00
20:32:23.383 -> 41.00,7.00
20:32:23.485 -> 49.00,1.00
20:32:23.586 -> 22.00,2.00
20:32:23.693 -> 38.00,1.00
20:32:23.799 -> 39.00,4.00
20:32:23.906 -> 49.00,0.00
20:32:24.016 -> 17.00,6.00
20:32:24.084 -> 31.00,2.00
20:32:24.190 -> 40.00,9.00
20:32:24.300 -> 21.00,8.00
20:32:24.403 -> 34.00,1.00
20:32:24.510 -> 5.00,3.00
20:32:24.620 -> 80.00,4.00
20:32:24.689 -> 40.00,38.00
20:32:24.796 -> 155.00,4.00
20:32:24.898 -> 32.00,3.00
20:32:25.007 -> 67.00,0.00
20:32:25.111 -> 3.00,0.00
20:32:25.215 -> 53.00,1.00
20:32:25.317 -> 35.00,8.00
20:32:25.426 -> 15.00,39.00
20:32:25.497 -> 107.00,4.00
20:32:25.607 -> 30.00,1.00
20:32:25.710 -> 14.00,3.00
20:32:25.816 -> 23.00,6.00
20:32:25.924 -> 50.00,3.00
20:32:26.029 -> 88.00,24.00
20:32:26.102 -> 33.00,33.00
20:32:26.204 -> 5.00,18.00
20:32:26.312 -> 49.00,7.00
20:32:26.419 -> 76.00,3.00
20:32:26.519 -> 52.00,3.00
20:32:26.622 -> 95.00,4.00
20:32:26.729 -> 20.00,6.00
20:32:26.842 -> 73.00,8.00
20:32:26.948 -> 23.00,1.00
20:32:27.019 -> 49.00,1.00
20:32:27.132 -> 50.00,1.00
20:32:27.245 -> 39.00,2.00
20:32:27.315 -> 14.00,3.00
20:32:27.426 -> 45.00,32.00
20:32:27.539 -> 40.00,11.00
20:32:27.647 -> 36.00,2.00
20:32:27.750 -> 12.00,5.00
20:32:27.853 -> 93.00,4.00
20:32:27.920 -> 29.00,6.00
20:32:28.026 -> 69.00,11.00
20:32:28.134 -> 28.00,52.00
20:32:28.241 -> 27.00,0.00
20:32:28.350 -> 59.00,1.00
20:32:28.455 -> 13.00,6.00
20:32:28.527 -> 2.00,1.00
20:32:28.634 -> 18.00,18.00
20:32:28.744 -> 31.00,0.00
20:32:28.856 -> 28.00,8.00
20:32:28.929 -> 3.00,1.00
20:32:29.035 -> 0.00,0.00
20:32:29.136 -> 13.00,5.00
20:32:29.240 -> 67.00,4.00
20:32:29.345 -> 9.00,11.00
20:32:29.447 -> 61.00,35.00
20:32:29.556 -> 20.00,4.00
20:32:29.663 -> 29.00,6.00
20:32:29.768 -> 40.00,2.00
20:32:29.871 -> 58.00,3.00
20:32:29.941 -> 45.00,1.00
20:32:30.051 -> 29.00,39.00
20:32:30.165 -> 44.00,8.00
20:32:30.269 -> 160.00,31.00
20:32:30.373 -> 50.00,10.00
20:32:30.474 -> 3.00,2.00
20:32:30.543 -> 39.00,1.00
20:32:30.649 -> 61.00,0.00
20:32:30.750 -> 6.00,14.00
20:32:30.857 -> 13.00,1.00
20:32:30.962 -> 19.00,0.00
20:32:31.069 -> 38.00,4.00
20:32:31.180 -> 9.00,1.00
20:32:31.289 -> 73.00,3.00
20:32:31.361 -> 0.00,20.00
20:32:31.464 -> 8.00,15.00
20:32:31.565 -> 53.00,10.00
20:32:31.677 -> 19.00,6.00
20:32:31.785 -> 63.00,6.00
20:32:31.894 -> 56.00,1.00
20:32:31.961 -> 0.00,0.00
20:32:32.069 -> 64.00,9.00
20:32:32.169 -> 45.00,5.00
20:32:32.272 -> 25.00,35.00
20:32:32.374 -> 62.00,2.00
20:32:32.480 -> 79.00,1.00
20:32:32.586 -> 51.00,6.00
20:32:32.694 -> 2.00,4.00
20:32:32.803 -> 9.00,6.00
20:32:32.873 -> 63.00,9.00
20:32:32.983 -> 27.00,2.00
20:32:33.096 -> 78.00,29.00
20:32:33.202 -> 9.00,5.00
20:32:33.303 -> 29.00,14.00
20:32:33.408 -> 1.00,0.00
20:32:33.476 -> 89.00,1.00
20:32:33.590 -> 60.00,1.00
20:32:33.705 -> 100.00,1.00
20:32:33.779 -> 40.00,1.00
20:32:33.886 -> 137.00,0.00
20:32:34.000 -> 52.00,2.00
20:32:34.111 -> 14.00,2.00
20:32:34.184 -> 78.00,6.00
20:32:34.290 -> 35.00,4.00
20:32:34.398 -> 45.00,22.00
20:32:34.507 -> 19.00,7.00
20:32:34.613 -> 71.00,12.00
20:32:34.719 -> 100.00,1.00
20:32:34.789 -> 16.00,6.00
20:32:34.896 -> 120.00,3.00
20:32:34.998 -> 65.00,2.00
20:32:35.107 -> 23.00,0.00
20:32:35.209 -> 53.00,3.00
20:32:35.315 -> 38.00,0.00
20:32:35.423 -> 63.00,0.00
20:32:35.532 -> 38.00,1.00
20:32:35.601 -> 28.00,17.00
20:32:35.705 -> 110.00,17.00
20:32:35.810 -> 20.00,78.00
20:32:35.919 -> 49.00,0.00
20:32:36.029 -> 24.00,3.00
20:32:36.134 -> 55.00,7.00
20:32:36.203 -> 4.00,2.00
20:32:36.309 -> 56.00,1.00
20:32:36.418 -> 53.00,6.00
20:32:36.529 -> 35.00,10.00
20:32:36.638 -> 96.00,2.00
20:32:36.745 -> 47.00,0.00
20:32:36.818 -> 13.00,1.00
20:32:36.928 -> 141.00,0.00
20:32:37.034 -> 42.00,25.00
20:32:37.144 -> 29.00,8.00
20:32:37.215 -> 68.00,0.00
20:32:37.322 -> 64.00,6.00
20:32:37.432 -> 0.00,0.00
20:32:37.545 -> 34.00,0.00
20:32:37.652 -> 20.00,0.00
20:32:37.723 -> 26.00,0.00
20:32:37.825 -> 0.00,17.00
20:32:37.930 -> 53.00,4.00
20:32:38.039 -> 73.00,9.00
20:32:38.149 -> 60.00,7.00
20:32:38.252 -> 11.00,2.00
20:32:38.325 -> 33.00,1.00
20:32:38.431 -> 14.00,1.00
20:32:38.542 -> 41.00,0.00
20:32:38.652 -> 108.00,2.00
20:32:38.762 -> 95.00,0.00
20:32:38.833 -> 19.00,2.00
20:32:38.934 -> 57.00,7.00
20:32:39.042 -> 20.00,38.00
20:32:39.144 -> 26.00,13.00
20:32:39.258 -> 13.00,10.00
20:32:39.368 -> 6.00,12.00
20:32:39.437 -> 33.00,3.00
20:32:39.541 -> 53.00,4.00
20:32:39.651 -> 50.00,1.00
20:32:39.754 -> 42.00,0.00
20:32:39.865 -> 46.00,0.00
20:32:39.969 -> 50.00,25.00
20:32:40.039 -> 50.00,6.00
20:32:40.147 -> 104.00,1.00
20:32:40.252 -> 48.00,5.00
20:32:40.360 -> 85.00,4.00
20:32:40.471 -> 42.00,8.00
20:32:40.575 -> 47.00,7.00
20:32:40.643 -> 4.00,6.00
20:32:40.750 -> 30.00,0.00
20:32:40.855 -> 23.00,2.00
20:32:40.958 -> 24.00,19.00
20:32:41.068 -> 57.00,31.00
20:32:41.174 -> 0.00,33.00
20:32:41.280 -> 74.00,0.00
20:32:41.390 -> 46.00,0.00
20:32:41.458 -> 12.00,0.00
20:32:41.565 -> 24.00,3.00
20:32:41.670 -> 42.00,8.00
20:32:41.780 -> 52.00,12.00
20:32:41.894 -> 37.00,4.00
20:32:41.968 -> 91.00,7.00
20:32:42.073 -> 44.00,35.00
20:32:42.174 -> 73.00,5.00
20:32:42.280 -> 15.00,2.00
20:32:42.387 -> 78.00,7.00
20:32:42.495 -> 3.00,5.00
20:32:42.571 -> 21.00,9.00
20:32:42.679 -> 98.00,5.00
20:32:42.789 -> 130.00,9.00
20:32:42.897 -> 73.00,1.00
20:32:42.973 -> 36.00,1.00
20:32:43.087 -> 152.00,3.00
20:32:43.202 -> 43.00,32.00
20:32:43.274 -> 57.00,29.00
20:32:43.388 -> 86.00,7.00
20:32:43.494 -> 58.00,2.00
20:32:43.601 -> 41.00,1.00
20:32:43.674 -> 72.00,1.00
20:32:43.779 -> 83.00,10.00
20:32:43.884 -> 26.00,2.00
20:32:43.990 -> 42.00,27.00
20:32:44.092 -> 56.00,24.00
20:32:44.199 -> 0.00,18.00
20:32:44.307 -> 35.00,15.00
20:32:44.413 -> 83.00,1.00
20:32:44.519 -> 20.00,5.00
20:32:44.588 -> 30.00,2.00
20:32:44.700 -> 1.00,0.00
20:32:44.807 -> 27.00,5.00
20:32:44.915 -> 18.00,3.00
20:32:45.022 -> 26.00,7.00
20:32:45.091 -> 47.00,28.00
20:32:45.202 -> 50.00,30.00
20:32:45.312 -> 106.00,5.00
20:32:45.420 -> 39.00,2.00
20:32:45.529 -> 43.00,3.00
20:32:45.597 -> 77.00,4.00
20:32:45.702 -> 53.00,1.00
20:32:45.808 -> 10.00,4.00
20:32:45.916 -> 87.00,2.00
20:32:46.024 -> 46.00,0.00
20:32:46.130 -> 20.00,3.00
20:32:46.239 -> 79.00,33.00
20:32:46.307 -> 77.00,8.00
20:32:46.419 -> 38.00,1.00
20:32:46.519 -> 20.00,0.00
20:32:46.631 -> 98.00,5.00
20:32:46.733 -> 55.00,2.00
20:32:46.841 -> 105.00,3.00
20:32:46.908 -> 22.00,8.00
20:32:47.016 -> 48.00,15.00
20:32:47.123 -> 58.00,10.00
20:32:47.233 -> 7.00,49.00
20:32:47.341 -> 5.00,0.00
20:32:47.445 -> 27.00,4.00
20:32:47.516 -> 25.00,4.00
20:32:47.620 -> 114.00,2.00
20:32:47.725 -> 8.00,6.00
20:32:47.834 -> 11.00,0.00
20:32:47.942 -> 0.00,2.00
20:32:48.053 -> 14.00,25.00
20:32:48.123 -> 65.00,4.00
20:32:48.228 -> 43.00,0.00
20:32:48.335 -> 45.00,8.00
20:32:48.436 -> 14.00,0.00
20:32:48.544 -> 77.00,2.00
20:32:48.650 -> 60.00,1.00
20:32:48.762 -> 74.00,7.00
20:32:48.838 -> 32.00,1.00
20:32:48.940 -> 6.00,0.00
20:32:49.053 -> 40.00,4.00
20:32:49.163 -> 11.00,0.00
20:32:49.232 -> 93.00,11.00
20:32:49.335 -> 23.00,6.00
20:32:49.445 -> 29.00,2.00
20:32:49.554 -> 71.00,2.00
20:32:49.664 -> 40.00,5.00
20:32:49.774 -> 22.00,2.00
20:32:49.842 -> 67.00,0.00
20:32:49.952 -> 60.00,5.00
20:32:50.067 -> 6.00,31.00
20:32:50.143 -> 41.00,54.00
20:32:50.257 -> 9.00,34.00
20:32:50.372 -> 100.00,2.00
20:32:50.444 -> 3.00,0.00
20:32:50.558 -> 81.00,0.00
20:32:50.673 -> 20.00,0.00
20:32:50.745 -> 105.00,8.00
20:32:50.852 -> 0.00,7.00
20:32:50.954 -> 72.00,5.00
20:32:51.059 -> 51.00,14.00
20:32:51.161 -> 57.00,5.00
20:32:51.271 -> 62.00,24.00
20:32:51.381 -> 38.00,0.00
20:32:51.488 -> 75.00,7.00
20:32:51.559 -> 22.00,3.00
20:32:51.661 -> 46.00,5.00
20:32:51.774 -> 52.00,7.00
20:32:51.879 -> 41.00,7.00
20:32:51.984 -> 72.00,10.00
20:32:52.090 -> 44.00,10.00
20:32:52.161 -> 0.00,30.00
20:32:52.265 -> 74.00,0.00
20:32:52.369 -> 13.00,0.00
20:32:52.481 -> 117.00,7.00
20:32:52.586 -> 65.00,1.00
20:32:52.693 -> 102.00,3.00
20:32:52.801 -> 63.00,0.00
20:32:52.869 -> 78.00,4.00
20:32:52.972 -> 51.00,18.00
20:32:53.081 -> 60.00,14.00
20:32:53.183 -> 9.00,3.00
20:32:53.293 -> 0.00,63.00
20:32:53.403 -> 93.00,1.00
20:32:53.477 -> 23.00,3.00
20:32:53.586 -> 0.00,1.00
20:32:53.692 -> 0.00,1.00
20:32:53.801 -> 26.00,1.00
20:32:53.912 -> 48.00,3.00
20:32:53.983 -> 36.00,7.00
20:32:54.084 -> 42.00,23.00
20:32:54.184 -> 0.00,5.00
20:32:54.286 -> 4.00,2.00
20:32:54.389 -> 18.00,0.00
20:32:54.499 -> 10.00,5.00
20:32:54.608 -> 11.00,3.00
20:32:54.719 -> 34.00,0.00
20:32:54.790 -> 141.00,4.00
20:32:54.897 -> 30.00,2.00
20:32:54.998 -> 14.00,0.00
20:32:55.110 -> 10.00,7.00
20:32:55.224 -> 45.00,8.00
20:32:55.292 -> 18.00,2.00
20:32:55.402 -> 49.00,5.00
20:32:55.513 -> 45.00,7.00
20:32:55.618 -> 26.00,1.00
20:32:55.693 -> 11.00,5.00
20:32:55.802 -> 40.00,0.00
20:32:55.915 -> 132.00,3.00
20:32:56.024 -> 89.00,2.00
20:32:56.130 -> 9.00,2.00
20:32:56.234 -> 68.00,1.00
20:32:56.306 -> 5.00,0.00
20:32:56.412 -> 26.00,4.00
20:32:56.514 -> 59.00,5.00
20:32:56.625 -> 15.00,12.00
20:32:56.735 -> 24.00,2.00
20:32:56.805 -> 9.00,2.00
20:32:56.912 -> 23.00,3.00
20:32:57.014 -> 11.00,0.00
20:32:57.122 -> 2.00,1.00
20:32:57.230 -> 12.00,3.00
20:32:57.335 -> 0.00,3.00
20:32:57.438 -> 29.00,1.